,id,category
0,209,2.0
1,210,2.0
2,211,2.0
3,212,2.0
4,213,2.0
5,214,2.0
6,215,2.0
7,216,2.0
8,217,2.0
9,218,2.0
10,219,2.0
11,220,2.0
12,221,2.0
13,222,2.0
14,223,2.0
15,224,2.0
16,225,2.0
17,226,2.0
18,227,2.0
19,228,2.0
20,229,2.0
21,230,2.0
22,231,2.0
23,232,2.0
24,233,2.0
25,234,2.0
26,236,2.0
27,237,2.0
28,238,2.0
29,239,2.0
30,240,2.0
31,241,2.0
32,242,2.0
33,243,2.0
34,244,2.0
35,245,2.0
36,246,2.0
37,247,2.0
38,248,2.0
39,249,2.0
40,250,2.0
41,251,2.0
42,252,2.0
43,253,2.0
44,254,2.0
45,255,2.0
46,256,2.0
47,257,2.0
48,258,2.0
49,259,2.0
50,260,2.0
51,261,2.0
52,262,2.0
53,263,2.0
54,264,2.0
55,265,2.0
56,266,2.0
57,267,2.0
58,268,2.0
59,269,2.0
60,270,2.0
61,271,2.0
62,272,2.0
63,273,2.0
64,274,2.0
65,275,2.0
66,276,2.0
67,277,2.0
68,278,2.0
69,279,2.0
70,280,2.0
71,281,2.0
72,282,2.0
73,283,2.0
74,284,2.0
75,285,2.0
76,286,2.0
77,287,2.0
78,288,2.0
79,289,2.0
80,290,2.0
81,291,2.0
82,292,2.0
83,293,2.0
84,294,2.0
85,295,2.0
86,296,2.0
87,297,2.0
88,298,2.0
89,299,2.0
90,300,2.0
91,301,2.0
92,302,2.0
93,303,2.0
94,304,2.0
95,305,2.0
96,306,2.0
97,307,2.0
98,308,2.0
99,309,2.0
100,310,2.0
101,311,2.0
102,312,2.0
103,313,2.0
104,314,2.0
105,315,2.0
106,316,2.0
107,317,2.0
108,318,2.0
109,319,2.0
110,320,2.0
111,321,2.0
112,322,2.0
113,323,2.0
114,324,2.0
115,325,2.0
116,326,2.0
117,327,2.0
118,328,2.0
119,329,2.0
120,330,2.0
121,331,2.0
122,332,2.0
123,333,2.0
124,334,2.0
125,335,2.0
126,336,2.0
127,337,2.0
128,338,2.0
129,339,2.0
130,340,2.0
131,341,2.0
132,342,2.0
133,343,2.0
134,344,2.0
135,345,2.0
136,346,2.0
137,347,2.0
138,348,2.0
139,349,2.0
140,350,2.0
141,351,2.0
142,352,2.0
143,353,2.0
144,354,2.0
145,355,2.0
146,356,2.0
147,357,2.0
148,358,2.0
149,359,2.0
150,360,2.0
151,361,2.0
152,362,2.0
153,363,2.0
154,364,2.0
155,365,2.0
156,366,2.0
157,367,2.0
158,368,2.0
159,369,2.0
160,370,2.0
161,371,2.0
162,372,2.0
163,373,2.0
164,374,2.0
165,375,2.0
166,376,2.0
167,377,2.0
168,378,2.0
169,379,2.0
170,380,2.0
171,381,2.0
172,382,2.0
173,383,2.0
174,384,2.0
175,385,2.0
176,386,2.0
177,387,2.0
178,388,2.0
179,389,2.0
180,390,2.0
181,391,2.0
182,392,2.0
183,393,2.0
184,394,2.0
185,395,2.0
186,396,2.0
187,397,2.0
188,398,2.0
189,399,2.0
190,400,2.0
191,401,2.0
192,402,2.0
193,403,2.0
194,404,2.0
195,405,2.0
196,406,2.0
197,407,2.0
198,408,2.0
199,409,2.0
200,410,2.0
201,411,2.0
202,412,2.0
203,413,2.0
204,414,2.0
205,415,2.0
206,416,2.0
207,417,2.0
208,418,2.0
209,419,2.0
210,420,2.0
211,421,2.0
212,422,2.0
213,423,2.0
214,424,2.0
215,425,2.0
216,426,2.0
217,427,2.0
218,428,2.0
219,429,2.0
220,430,2.0
221,431,2.0
222,432,2.0
223,433,2.0
224,434,2.0
225,435,2.0
226,436,2.0
227,437,2.0
228,438,2.0
229,439,2.0
230,440,2.0
231,441,2.0
232,442,2.0
233,443,2.0
234,444,2.0
235,445,2.0
236,446,2.0
237,447,2.0
238,448,2.0
239,449,2.0
240,450,2.0
241,451,2.0
242,452,2.0
243,453,2.0
244,454,2.0
245,455,2.0
246,456,2.0
247,457,2.0
248,458,2.0
249,459,2.0
250,460,2.0
251,461,2.0
252,462,2.0
253,463,2.0
254,464,2.0
255,465,2.0
256,466,2.0
257,467,2.0
258,468,2.0
259,469,2.0
260,470,2.0
261,471,2.0
262,472,2.0
263,473,2.0
264,474,2.0
265,475,2.0
266,476,2.0
267,477,2.0
268,478,2.0
269,479,2.0
270,480,2.0
271,481,2.0
272,482,2.0
273,483,2.0
274,484,2.0
275,485,2.0
276,486,2.0
277,487,2.0
278,488,2.0
279,489,2.0
280,490,2.0
281,491,2.0
282,492,2.0
283,493,2.0
284,494,2.0
285,495,2.0
286,496,2.0
287,497,2.0
288,498,2.0
289,499,2.0
290,500,2.0
291,501,2.0
292,502,2.0
293,503,2.0
294,504,2.0
295,505,2.0
296,506,2.0
297,507,2.0
298,508,2.0
299,509,2.0
300,510,2.0
301,511,2.0
302,512,2.0
303,513,2.0
304,514,2.0
305,515,2.0
306,516,2.0
307,517,2.0
308,518,2.0
309,519,2.0
310,520,2.0
311,521,2.0
312,522,2.0
313,523,2.0
314,524,2.0
315,525,2.0
316,526,2.0
317,527,2.0
318,528,2.0
319,529,2.0
320,530,2.0
321,531,2.0
322,532,2.0
323,533,2.0
324,534,2.0
325,535,2.0
326,536,2.0
327,537,2.0
328,538,2.0
329,539,2.0
330,540,2.0
331,541,2.0
332,542,2.0
333,543,2.0
334,544,2.0
335,545,2.0
336,546,2.0
337,547,2.0
338,548,2.0
339,549,2.0
340,550,2.0
341,551,2.0
342,552,2.0
343,553,2.0
344,554,2.0
345,555,2.0
346,556,2.0
347,557,2.0
348,558,2.0
349,559,2.0
350,560,2.0
351,561,2.0
352,562,2.0
353,563,2.0
354,564,2.0
355,565,2.0
356,566,2.0
357,567,2.0
358,568,2.0
359,569,2.0
360,570,2.0
361,571,2.0
362,572,2.0
363,573,2.0
364,574,2.0
365,575,2.0
366,576,2.0
367,577,2.0
368,578,2.0
